Sat Sep 15 19:54:43 2018
[Header]
Column  0 : index               	count
Column  1 : time                	sec
Column  2 : temperature         	K
Column  3 : magneticField       	Oe
Column  4 : current             	A
Column  5 : VH                  	V
Column  6 : VHstd               	V
Column  7 : VR                  	V
Column  8 : VRstd               	V
Column  9 : NOM                 	count
Column 10 : level               	pc
[Header end]

+1.48000000e+02, +3.27597196e+02, +4.40004000e+01, -8.99987810e+04, +1.00000000e-04, +1.12542050e-06, +4.32155554e-09, +1.09157855e-02, +4.63576717e-08, +1.00000000e+01, +6.84000000e+01
+1.49000000e+02, +5.20183006e+02, +4.40001000e+01, -8.49991800e+04, +1.00000000e-04, +1.12584600e-06, +5.13595308e-09, +1.09050531e-02, +3.81692353e-08, +1.00000000e+01, +6.84000000e+01
+1.50000000e+02, +7.19151306e+02, +4.40001000e+01, -7.99992030e+04, +1.00000000e-04, +1.12042600e-06, +2.69076550e-09, +1.08946759e-02, +4.57693743e-08, +1.00000000e+01, +6.84000000e+01
+1.51000000e+02, +9.10499021e+02, +4.39998000e+01, -7.49990310e+04, +1.00000000e-04, +1.11175750e-06, +4.70244418e-09, +1.08847291e-02, +3.80096373e-08, +1.00000000e+01, +6.84000000e+01
+1.52000000e+02, +1.10812021e+03, +4.40001000e+01, -6.99987190e+04, +1.00000000e-04, +1.09824750e-06, +5.58132746e-09, +1.08752515e-02, +5.41547526e-08, +1.00000000e+01, +6.84000000e+01
+1.53000000e+02, +1.29832684e+03, +4.39996000e+01, -6.49991640e+04, +1.00000000e-04, +1.08237450e-06, +5.89193790e-09, +1.08662381e-02, +1.63047087e-08, +1.00000000e+01, +6.84000000e+01
+1.54000000e+02, +1.48871456e+03, +4.40000000e+01, -5.99985700e+04, +1.00000000e-04, +1.05925200e-06, +5.26055282e-09, +1.08577045e-02, +1.39234344e-08, +1.00000000e+01, +6.84000000e+01
+1.55000000e+02, +1.67777593e+03, +4.40000000e+01, -5.49990160e+04, +1.00000000e-04, +1.03559150e-06, +6.00740171e-09, +1.08497216e-02, +3.84037983e-08, +1.00000000e+01, +6.84000000e+01
+1.56000000e+02, +1.86697032e+03, +4.40001000e+01, -4.99989920e+04, +1.00000000e-04, +1.00789700e-06, +5.41830472e-09, +1.08421700e-02, +2.45946951e-08, +1.00000000e+01, +6.84000000e+01
+1.57000000e+02, +2.05618470e+03, +4.39999000e+01, -4.49986800e+04, +1.00000000e-04, +9.75950500e-07, +5.23452073e-09, +1.08352424e-02, +4.11779337e-08, +1.00000000e+01, +6.84000000e+01
+1.58000000e+02, +2.25174754e+03, +4.39998000e+01, -3.99997890e+04, +1.00000000e-04, +9.40559000e-07, +4.09271169e-09, +1.08289035e-02, +4.77124313e-08, +1.00000000e+01, +6.84000000e+01
+1.59000000e+02, +2.43997885e+03, +4.39998000e+01, -3.49989570e+04, +1.00000000e-04, +9.03489000e-07, +3.99050360e-09, +1.08230829e-02, +2.02427302e-08, +1.00000000e+01, +6.84000000e+01
+1.60000000e+02, +2.63547168e+03, +4.39991000e+01, -2.99987870e+04, +1.00000000e-04, +8.61463500e-07, +5.92964166e-09, +1.08179677e-02, +2.62684050e-08, +1.00000000e+01, +6.84000000e+01
+1.61000000e+02, +2.83012245e+03, +4.39994000e+01, -2.49993280e+04, +1.00000000e-04, +8.17331500e-07, +4.64362307e-09, +1.08134627e-02, +3.98319034e-08, +1.00000000e+01, +6.84000000e+01
+1.62000000e+02, +3.01705767e+03, +4.40002000e+01, -1.99999180e+04, +1.00000000e-04, +7.71553500e-07, +5.90433529e-09, +1.08096627e-02, +2.86410217e-08, +1.00000000e+01, +6.84000000e+01
+1.63000000e+02, +3.20426892e+03, +4.39998000e+01, -1.49994170e+04, +1.00000000e-04, +7.25981500e-07, +2.29717549e-09, +1.08066036e-02, +3.45412565e-08, +1.00000000e+01, +6.84000000e+01
+1.64000000e+02, +3.39148716e+03, +4.39998000e+01, -9.99853800e+03, +1.00000000e-04, +6.77048000e-07, +5.26105655e-09, +1.08044503e-02, +2.81505351e-08, +1.00000000e+01, +6.71000000e+01
+1.65000000e+02, +3.57654024e+03, +4.39998000e+01, -4.99993200e+03, +1.00000000e-04, +6.23988500e-07, +4.05831495e-09, +1.08031725e-02, +2.85343372e-08, +1.00000000e+01, +6.71000000e+01
+1.66000000e+02, +3.76025424e+03, +4.39997000e+01, +9.50000000e-02, +1.00000000e-04, +5.78991000e-07, +4.95241900e-09, +1.08027263e-02, +2.47802850e-08, +1.00000000e+01, +6.71000000e+01
+1.67000000e+02, +3.95385094e+03, +4.39997000e+01, +5.00006000e+03, +1.00000000e-04, +5.28748000e-07, +4.01301395e-09, +1.08031656e-02, +2.91456862e-08, +1.00000000e+01, +6.71000000e+01
+1.68000000e+02, +4.14611054e+03, +4.40000000e+01, +9.99943800e+03, +1.00000000e-04, +4.80908000e-07, +4.27806685e-09, +1.08044819e-02, +2.46256010e-08, +1.00000000e+01, +6.71000000e+01
+1.69000000e+02, +4.33236972e+03, +4.40002000e+01, +1.50011700e+04, +1.00000000e-04, +4.33378000e-07, +2.74945740e-09, +1.08066772e-02, +2.65014268e-08, +1.00000000e+01, +6.71000000e+01
+1.70000000e+02, +4.51825987e+03, +4.40000000e+01, +2.00015760e+04, +1.00000000e-04, +3.88160000e-07, +5.03583856e-09, +1.08097005e-02, +3.22641833e-08, +1.00000000e+01, +6.71000000e+01
+1.71000000e+02, +4.71179155e+03, +4.40001000e+01, +2.50006070e+04, +1.00000000e-04, +3.47265000e-07, +6.04234516e-09, +1.08134407e-02, +2.59843554e-08, +1.00000000e+01, +6.71000000e+01
+1.72000000e+02, +4.89896479e+03, +4.40000000e+01, +2.99994980e+04, +1.00000000e-04, +3.06532000e-07, +3.28945223e-09, +1.08179659e-02, +2.36315705e-08, +1.00000000e+01, +6.71000000e+01
+1.73000000e+02, +5.08613504e+03, +4.40006000e+01, +3.50000470e+04, +1.00000000e-04, +2.67601000e-07, +3.04617120e-09, +1.08230341e-02, +2.57870631e-08, +1.00000000e+01, +6.71000000e+01
+1.74000000e+02, +5.27440336e+03, +4.39998000e+01, +4.00005940e+04, +1.00000000e-04, +2.36402500e-07, +4.58720408e-09, +1.08287907e-02, +2.22067557e-08, +1.00000000e+01, +6.71000000e+01
+1.75000000e+02, +5.46238465e+03, +4.40001000e+01, +4.49998630e+04, +1.00000000e-04, +2.05884000e-07, +5.31812364e-09, +1.08351690e-02, +2.57565545e-08, +1.00000000e+01, +6.71000000e+01
+1.76000000e+02, +5.65158173e+03, +4.40002000e+01, +4.99986130e+04, +1.00000000e-04, +1.78523500e-07, +2.86146732e-09, +1.08421427e-02, +4.07181314e-08, +1.00000000e+01, +6.71000000e+01
+1.77000000e+02, +5.84077528e+03, +4.40004000e+01, +5.50000120e+04, +1.00000000e-04, +1.60931500e-07, +3.12146684e-09, +1.08496699e-02, +3.13804573e-08, +1.00000000e+01, +6.71000000e+01
+1.78000000e+02, +6.03758541e+03, +4.40000000e+01, +6.00008910e+04, +1.00000000e-04, +1.40839000e-07, +4.74599926e-09, +1.08577117e-02, +3.45766048e-08, +1.00000000e+01, +6.71000000e+01
+1.79000000e+02, +6.22798705e+03, +4.40000000e+01, +6.50010160e+04, +1.00000000e-04, +1.28848500e-07, +4.62767277e-09, +1.08662541e-02, +4.16450189e-08, +1.00000000e+01, +6.71000000e+01
+1.80000000e+02, +6.41835269e+03, +4.40000000e+01, +6.99993360e+04, +1.00000000e-04, +1.20591500e-07, +5.18019114e-09, +1.08752537e-02, +3.30846282e-08, +1.00000000e+01, +6.71000000e+01
+1.81000000e+02, +6.60875034e+03, +4.40000000e+01, +7.50022500e+04, +1.00000000e-04, +1.14229000e-07, +3.11823652e-09, +1.08847592e-02, +1.36791347e-08, +1.00000000e+01, +6.71000000e+01
+1.82000000e+02, +6.79886396e+03, +4.39997000e+01, +8.00010940e+04, +1.00000000e-04, +1.15836000e-07, +5.87454798e-09, +1.08947035e-02, +6.80035514e-08, +1.00000000e+01, +6.71000000e+01
+1.83000000e+02, +6.99033667e+03, +4.39997000e+01, +8.50013980e+04, +1.00000000e-04, +1.19616500e-07, +3.20507960e-09, +1.09050717e-02, +3.14712031e-08, +1.00000000e+01, +6.67000000e+01
+1.84000000e+02, +7.19232721e+03, +4.39996000e+01, +9.00002970e+04, +1.00000000e-04, +1.26419500e-07, +4.84627715e-09, +1.09159988e-02, +4.21218661e-08, +1.00000000e+01, +6.67000000e+01
